x,y,z,ax,ay,az,id
5.473108291625980,-79.53975677490230,3.584758996963500,5.149359703063970,-79.3399658203125,3.4345040321350100,0
5.107663631439210,-79.3993148803711,3.5033469200134300,4.802011966705320,-79.17672729492190,3.347024440765380,1
4.754541873931890,-79.2347183227539,3.4132349491119400,4.468563556671140,-78.98912048339840,3.254101037979130,2
4.415441036224370,-79.04600524902340,3.316879987716680,4.150609493255620,-78.77750396728520,3.1579785346984900,3
4.0919575691223100,-78.83335876464840,3.2166311740875200,3.84979510307312,-78.54249572753910,3.0610079765319800,4
3.7857537269592300,-78.59719848632810,3.114927053451540,3.567456007003780,-78.28504180908200,2.9652278423309300,5
3.498218059539800,-78.33831787109380,3.013889789581300,3.3046979904174800,-78.00648498535160,2.872591018676760,6
3.2305424213409400,-78.0580062866211,2.915579080581670,3.0621564388275100,-77.70856475830080,2.784712314605710,7
2.983464002609250,-77.7579345703125,2.821727991104130,2.8398921489715600,-77.39329528808590,2.70284104347229,8
2.757154941558840,-77.44020080566410,2.733736753463750,2.6373038291931200,-77.06302642822270,2.627864360809330,9
2.5511019229888900,-77.10723114013670,2.652661085128780,2.4531779289245600,-76.72001647949220,2.5601518154144300,10
2.3641512393951400,-76.7614517211914,2.5790584087371800,2.285524368286130,-76.36670684814450,2.4995906352996800,11
2.1943247318267800,-76.40546417236330,2.513028383255010,2.131993055343630,-76.00518035888670,2.445615768432620,12
2.0392348766326900,-76.04153442382810,2.4542174339294400,1.9896007776260400,-75.63749694824220,2.3971943855285600,13
1.8958194255828900,-75.6718978881836,2.401829242706300,1.8553348779678300,-75.26528930664060,2.3531289100647000,14
1.7609611749649000,-75.29830932617190,2.3548879623413100,1.7257356643676800,-74.89022064208980,2.3120996952056900,15
1.6310678720474200,-74.92243957519530,2.312312602996830,1.6003758907318100,-74.51464080810550,2.2735440731048600,16
1.5050517320632900,-74.54486083984380,2.2733447551727300,1.487048625946050,-74.1353759765625,2.237898111343380,17
1.391002893447880,-74.16321563720700,2.2374770641326900,1.3774982690811200,-73.7525634765625,2.2030298709869400,18
1.2813838720321700,-73.78015899658200,2.2025880813598600,1.2676774263382000,-73.36956024169920,2.1680946350097700,19
1.171562671661380,-73.39715576171880,2.1676530838012700,1.1578598022460900,-72.98656463623050,2.13316011428833,20
1.0617448091507000,-73.01416778564450,2.132718324661260,1.0480451583862300,-72.60356903076170,2.0982255935668900,21
0.9519299864768980,-72.63116455078130,2.0977835655212400,0.9382334351539610,-72.22056579589840,2.063288927078250,22
0.8421182632446290,-72.2481689453125,2.0628464221954300,0.8284297585487370,-71.83758544921880,2.028379440307620,23
0.7323100566864010,-71.86516571044920,2.0279297828674300,0.7185544371604920,-71.4538803100586,2.0046632289886500,24
0.6224143505096440,-71.48139190673830,2.004210948944090,0.6087375283241270,-71.0694351196289,2.003030776977540,25
0.5125725269317630,-71.09685516357420,2.002579689025880,0.4993283450603490,-70.68547058105470,2.023883104324340,26
0.40313830971717800,-70.71280670166020,2.023435354232790,0.39066627621650700,-70.30315399169920,2.0673224925994900,27
0.2944512367248540,-70.33039855957030,2.0668833255767800,0.2831130027771000,-69.92376708984380,2.1332085132598900,28
0.18687325716018700,-69.950927734375,2.1327829360961900,0.17699307203292800,-69.54845428466800,2.2211625576019300,29
0.08072914183139800,-69.57553100585940,2.2207553386688200,0.0726117342710495,-69.1783218383789,2.3305585384368900,30
-0.023675570264458700,-69.20531463623050,2.3301737308502200,-0.029758363962173500,-68.8143539428711,2.4605493545532200,31
-0.12606807053089100,-68.84127044677730,2.460190773010250,-0.12990105152130100,-68.45734405517580,2.6101837158203100,32
-0.22623203694820400,-68.48418426513670,2.609854221343990,-0.22763259708881400,-68.10800170898440,2.7783000469207800,33
-0.32398366928100600,-68.134765625,2.7780020236969000,-0.3228262662887570,-67.76678466796880,2.9637606143951400,34
-0.41919612884521500,-67.79348754882810,2.9634957313537600,-0.41539427638053900,-67.43408966064450,3.1653029918670700,35
-0.511781632900238,-67.4607162475586,3.165072441101070,-0.5052908658981320,-67.110107421875,3.3817265033721900,36
-0.6016944646835330,-67.13668060302730,3.381531000137330,-0.5925057530403140,-66.794921875,3.611828327178960,37
-0.6889244318008420,-66.82144165039060,3.611668109893800,-0.6770271062850950,-66.4886245727539,3.854588747024540,38
-0.77345871925354,-66.51509857177730,3.8544623851776100,-0.7595053911209110,-66.18907928466800,4.106410980224610,39
-0.8559437394142150,-66.21553039550780,4.106296539306640,-0.8417750597000120,-65.89022064208980,4.359145641326900,40
-0.9382145404815670,-65.91666412353520,4.35902738571167,-0.9240419864654540,-65.59134674072270,4.611879825592040,41
-1.0204825401306200,-65.61779022216800,4.611757755279540,-1.0063062906265300,-65.29246520996090,4.864614486694340,42
-1.102747917175290,-65.31890869140630,4.864488124847410,-1.0885679721832300,-64.99359893798830,5.117349624633790,43
-1.1850106716156000,-65.02003479003910,5.117218971252440,-1.1708266735076900,-64.6947250366211,5.370084762573240,44
-1.2672706842422500,-64.72116088867190,5.3699493408203100,-1.2530828714370700,-64.39585876464840,5.622819900512700,45
-1.3495280742645300,-64.42228698730470,5.622679710388180,-1.3353362083435100,-64.09698486328130,5.875555515289310,46
-1.431782841682430,-64.12340545654300,5.875410556793210,-1.4175870418548600,-63.7981071472168,6.128291130065920,47
-1.5140349864959700,-63.824527740478500,6.128140926361080,-1.4998351335525500,-63.499237060546900,6.381027698516850,48
-1.5962845087051400,-63.52565002441410,6.380871772766110,-1.582080602645870,-63.20036697387700,6.633763790130620,49
-1.6785314083099400,-63.22677230834960,6.633602142333980,-1.6643234491348300,-62.901493072509800,6.886499881744390,50
-1.7607758045196500,-62.927886962890600,6.886332988739010,-1.7465640306472800,-62.60261535644530,7.139236927032470,51
-1.843017578125,-62.62900924682620,7.139063358306890,-1.8288016319274900,-62.30373764038090,7.391973495483400,52
-1.9252569675445600,-62.33012771606450,7.391793727874760,-1.9110368490219100,-62.00486373901370,7.644711017608640,53
-2.007493734359740,-62.031246185302700,7.644525051116940,-1.993269443511960,-61.705989837646500,7.897449016571050,54
-2.0897278785705600,-61.732364654541000,7.8972554206848100,-2.0754997730255100,-61.407108306884800,8.150186538696290,55
-2.17195987701416,-61.43347930908200,8.149986267089840,-2.1577277183532700,-61.10822677612310,8.402923583984380,56
-2.2541897296905500,-61.13459014892580,8.402716636657720,-2.239952802658080,-60.80935287475590,8.655661582946780,57
-2.336416721343990,-60.83570861816410,8.655447006225590,-2.3221757411956800,-60.510467529296900,8.90839958190918,58
-2.4186413288116500,-60.53682327270510,8.908177375793460,-2.4043960571289100,-60.21159362792970,9.161138534545900,59
-2.500863552093510,-60.23793411254880,9.160908699035650,-2.4866139888763400,-59.912715911865200,9.4138765335083,60
-2.583083391189580,-59.93905258178710,9.413639068603520,-2.5688295364379900,-59.61383056640630,9.66661548614502,61
-2.6653008460998500,-59.64016342163090,9.666369438171390,-2.651042938232420,-59.3149528503418,9.919354438781740,62
-2.74751615524292,-59.341270446777300,9.919100761413570,-2.7332539558410600,-59.016075134277300,10.172093391418500,63
-2.8297290802002000,-59.042388916015600,10.171831130981400,-2.815462350845340,-58.717193603515600,10.424833297729500,64
-2.9119396209716800,-58.743499755859400,10.424561500549300,-2.8976686000824000,-58.41830825805660,10.677572250366200,65
-2.994148015975950,-58.44460678100590,10.677292823791500,-2.979872941970830,-58.11942672729490,10.930313110351600,66
-3.076354503631590,-58.145721435546900,10.930024147033700,-3.062074899673460,-57.82053756713870,11.183052062988300,67
-3.1585581302642800,-57.846824645996100,11.182754516601600,-3.1442739963531500,-57.52165985107420,11.435792922973600,68
-3.24075984954834,-57.547935485839800,11.43548583984380,-3.226471185684200,-57.222774505615200,11.688532829284700,69
-3.3229591846466100,-57.24904251098630,11.688216209411600,-3.308666467666630,-56.92388916015630,11.94127368927000,70
-3.4051568508148200,-56.95014953613280,11.940947532653800,-3.3908591270446800,-56.62500762939450,12.194014549255400,71
-3.487351894378660,-56.6512565612793,12.19367790222170,-3.4730498790741000,-56.32611846923830,12.446755409240700,72
-3.569544792175290,-56.35236358642580,12.446409225463900,-3.555238723754880,-56.0272331237793,12.699496269226100,73
-3.65173602104187,-56.053466796875,12.699139595031700,-3.637425184249880,-55.72834777832030,12.952238082885700,74
-3.7339248657226600,-55.75457763671880,12.951870918273900,-3.7196097373962400,-55.42946243286130,13.20497989654540,75
-3.8161113262176500,-55.4556770324707,13.204602241516100,-3.8017916679382300,-55.13057327270510,13.457720756530800,76
-3.8982958793640100,-55.15678024291990,13.457332611084000,-3.883971929550170,-54.831687927246100,13.710463523864700,77
-3.9804787635803200,-54.85788345336910,13.710063934326200,-3.9661498069763200,-54.532798767089800,13.963205337524400,78
-4.06265926361084,-54.55898666381840,13.96279525756840,-4.048326015472410,-54.23391342163090,14.215948104858400,79
-4.144837856292730,-54.26008987426760,14.215526580810500,-4.130500316619870,-53.935020446777300,14.468689918518100,80
-4.227014541625980,-53.96118927001950,14.468256950378400,-4.212671756744390,-53.63613510131840,14.72143268585210,81
-4.309189319610600,-53.66229248046880,14.720988273620600,-4.294842720031740,-53.33723831176760,14.974176406860400,82
-4.391362190246580,-53.36338806152340,14.973719596862800,-4.377010822296140,-53.038352966308600,15.226919174194300,83
-4.4735331535339400,-53.06448745727540,15.22645092010500,-4.459177494049070,-52.739463806152300,15.479662895202600,84
-4.555702209472660,-52.765586853027300,15.479182243347200,-4.541341781616210,-52.44056701660160,15.732405662536600,85
-4.637869834899900,-52.46669006347660,15.731913566589400,-4.623504161834720,-52.14167785644530,15.985149383544900,86
-4.720034599304200,-52.167789459228500,15.984644889831500,-4.70566463470459,-51.84279251098630,16.237892150878900,87
-4.8021979331970200,-51.86888885498050,16.237375259399400,-4.787823677062990,-51.54389572143560,16.490636825561500,88
-4.884359359741210,-51.569984436035200,16.4901065826416,-4.869980812072750,-51.2450065612793,16.74338150024410,89
-4.966519355773930,-51.27108383178710,16.74283790588380,-4.9521355628967300,-50.94611358642580,16.996124267578100,90
-5.04867696762085,-50.9721794128418,16.995569229126000,-5.0342888832092300,-50.647220611572300,17.24886703491210,91
-5.130833148956300,-50.673274993896500,17.24829864501950,-5.116440773010250,-50.34832763671880,17.501615524292000,92
-5.212987899780270,-50.37437057495120,17.501033782959000,-5.1985907554626500,-50.049434661865200,17.75436019897460,93
-5.295140743255620,-50.075462341308600,17.75376319885250,-5.280738353729250,-49.75053787231450,18.007104873657200,94
-5.377291679382320,-49.77655792236330,18.00649642944340,-5.362884521484380,-49.4516487121582,18.259849548339800,95
-5.4594407081604,-49.477657318115200,18.259227752685500,-5.4450297355651900,-49.15275192260740,18.512596130371100,96
-5.54158878326416,-49.178749084472700,18.511959075927700,-5.527173042297360,-48.853858947753900,18.765338897705100,97
-5.623734474182130,-48.879844665527300,18.764690399169900,-5.60931396484375,-48.55495834350590,19.018083572387700,98
-5.705879211425780,-48.580936431884800,19.01742172241210,-5.69145393371582,-48.256065368652300,19.27083396911620,99
-5.788022041320800,-48.28202819824220,19.270156860351600,-5.7735915184021,-47.95717239379880,19.52358055114750,100
-5.8701629638671900,-47.983123779296900,19.522886276245100,-5.8557281494140600,-47.65827560424810,19.776323318481400,101
-5.9523024559021,-47.6842155456543,19.775617599487300,-5.937862873077390,-47.359378814697300,20.029069900512700,102
-6.034440517425540,-47.38530731201170,20.02834701538090,-6.019996643066410,-47.06047821044920,20.281818389892600,103
-6.1165771484375,-47.086395263671900,20.281082153320300,-6.102128505706790,-46.76157760620120,20.534563064575200,104
-6.198712348937990,-46.7874870300293,20.533811569213900,-6.184258937835690,-46.46268844604490,20.787311553955100,105
-6.280845642089840,-46.48857879638670,20.786544799804700,-6.266387939453130,-46.163787841796900,21.04006004333500,106
-6.362977981567380,-46.189666748046900,21.039278030395500,-6.348515033721920,-45.86488723754880,21.292808532714800,107
-6.445108413696290,-45.8907585144043,21.292009353637700,-6.430641174316410,-45.56599044799810,21.545551300048800,108
-6.527237892150880,-45.59184646606450,21.54473876953130,-6.512765884399410,-45.26709747314450,21.798301696777300,109
-6.609365463256840,-45.292938232421900,21.797473907470700,-6.594888687133790,-44.968196868896500,22.051048278808600,110
-6.691491603851320,-44.994022369384800,22.050203323364300,-6.677010536193850,-44.66929626464840,22.303796768188500,111
-6.773616790771480,-44.69511032104490,22.30293846130370,-6.759130954742430,-44.370399475097700,22.556543350219700,112
-6.855741024017330,-44.39619827270510,22.5556697845459,-6.841249942779540,-44.07149887084960,22.809293746948200,113
-6.937862873077390,-44.0972900390625,22.80840301513670,-6.923367500305180,-43.77259826660160,23.062040328979500,114
-7.019983768463140,-43.79837417602540,23.061134338378900,-7.005483150482180,-43.473697662353500,23.314788818359400,115
-7.102102756500240,-43.49946212768560,23.313867568969700,-7.08759880065918,-43.17479705810550,23.56753921508790,116
-7.1842217445373500,-43.2005500793457,23.566598892211900,-7.169713020324710,-42.87590026855470,23.820287704467800,117
-7.26633882522583,-42.90163803100590,23.819332122802700,-7.251824855804440,-42.577003479003900,24.073036193847700,118
-7.348454475402830,-42.602718353271500,24.072063446044900,-7.3339362144470200,-42.278099060058600,24.32578468322750,119
-7.430569171905520,-42.303810119628900,24.324796676635700,-7.416046142578130,-41.97919845581060,24.57853126525880,120
-7.512682914733890,-42.0048942565918,24.577529907226600,-7.498155117034910,-41.680294036865200,24.831283569335900,121
-7.594794750213620,-41.70597839355470,24.830263137817400,-7.580262660980230,-41.38139724731450,25.084033966064500,122
-7.676906108856200,-41.40706253051760,25.082996368408200,-7.662369728088380,-41.08249282836910,25.336782455444300,123
-7.759016036987310,-41.108150482177700,25.33572769165040,-7.744474411010740,-40.783592224121100,25.58953285217290,124
-7.841125011444090,-40.809234619140600,25.588459014892600,-7.826578617095950,-40.48468780517580,25.842283248901400,125
-7.9232330322265600,-40.510318756103500,25.84119415283200,-7.908682346343990,-40.185787200927700,26.095033645629900,126
-8.005339622497560,-40.211402893066400,26.09392738342290,-7.990784168243410,-39.88688659667970,26.3477840423584,127
-8.087445259094240,-39.9124870300293,26.34665870666500,-8.072884559631350,-39.587982177734400,26.600534439086900,128
-8.169548988342290,-39.61356735229490,26.599393844604500,-8.154983520507810,-39.28908157348630,26.85328483581540,129
-8.251652717590330,-39.31464767456060,26.852127075195300,-8.23708438873291,-38.990177154541000,27.106035232543900,130
-8.333755493164060,-39.0157356262207,27.1048583984375,-8.319181442260740,-38.69127655029300,27.35878562927250,131
-8.41585636138916,-38.716819763183600,27.357593536377000,-8.401278495788570,-38.39236831665040,27.61153793334960,132
-8.497957229614260,-38.41790008544920,27.610328674316400,-8.48337459564209,-38.093467712402300,27.864288330078100,133
-8.580057144165040,-38.11898422241210,27.863059997558600,-8.565469741821290,-37.79456329345700,28.117040634155300,134
-8.662155151367190,-37.820064544677700,28.11579132080080,-8.647563934326170,-37.49565887451170,28.36979103088380,135
-8.744253158569340,-37.52114486694340,28.368526458740200,-8.729657173156740,-37.19675827026370,28.622539520263700,136
-8.826350212097170,-37.22222900390630,28.621259689331100,-8.811748504638670,-36.897850036621100,28.875293731689500,137
-8.908446311950680,-36.923309326171900,28.873991012573200,-8.893841743469240,-36.59894561767580,29.12804412841800,138
-8.990540504455570,-36.6243896484375,29.126726150512700,-8.975932121276860,-36.300045013427700,29.380796432495100,139
-9.072635650634770,-36.32547378540040,29.379459381103500,-9.058021545410160,-36.00114059448240,29.633548736572300,140
-9.154728889465330,-36.02655029296880,29.6321964263916,-9.14011001586914,-35.70223617553710,29.88629913330080,141
-9.236821174621580,-35.727630615234400,29.88492774963380,-9.222198486328130,-35.40332794189450,30.13905143737790,142
-9.318912506103520,-35.428714752197300,30.137659072876000,-9.30428695678711,-35.104427337646500,30.39180564880370,143
-9.401004791259770,-35.12979507446290,30.390396118164100,-9.386373519897460,-34.805519104003900,30.64455795288090,144
-9.483095169067380,-34.830875396728500,30.643129348754900,-9.468459129333500,-34.506614685058600,30.897308349609400,145
-9.565184593200680,-34.53195571899410,30.895864486694300,-9.550543785095220,-34.20771026611330,31.15006446838380,146
-9.647273063659670,-34.233036041259800,31.148597717285200,-9.632628440856930,-33.908809661865200,31.402816772460900,147
-9.729361534118650,-33.93411636352540,31.401329040527300,-9.714713096618650,-33.60989761352540,31.655569076538100,148
-9.81144905090332,-33.635196685791000,31.65406608581540,-9.796796798706060,-33.31099319458010,31.9083194732666,149
-9.893536567687990,-33.336273193359400,31.90679931640630,-9.878878593444820,-33.012088775634800,32.161075592041000,150
-9.975622177124020,-33.037353515625,32.1595344543457,-9.960959434509280,-32.71318435668950,32.4138298034668,151
-10.057707786560100,-32.738433837890600,32.412269592285200,-10.043042182922400,-32.41427993774410,32.66658020019530,152
-10.139793395996100,-32.43951416015630,32.665000915527300,-10.125123023986800,-32.1153678894043,32.919334411621100,153
-10.221878051757800,-32.14059066772460,32.9177360534668,-10.20720386505130,-31.81646728515630,33.172088623046900,154
-10.303961753845200,-31.841670989990200,33.170467376709000,-10.289283752441400,-31.517559051513700,33.424842834472700,155
-10.3860445022583,-31.542749404907200,33.4232063293457,-10.371362686157200,-31.218656539917000,33.67759704589840,156
-10.468128204345700,-31.24382781982420,33.67593765258790,-10.453441619873000,-30.919748306274400,33.93034744262700,157
-10.550210952758800,-30.94490623474120,33.92867660522460,-10.535520553588900,-30.6208438873291,34.18309783935550,158
-10.632293701171900,-30.64598846435550,34.1814079284668,-10.617597579956100,-30.321937561035200,34.435855865478500,159
-10.714374542236300,-30.347063064575200,34.43414306640630,-10.699675559997600,-30.02303123474120,34.6886100769043,160
-10.796456336975100,-30.04814338684080,34.6868782043457,-10.781753540039100,-29.72412872314450,34.94136428833010,161
-10.87853717803960,-29.749221801757800,34.939613342285200,-10.863829612731900,-29.42521858215330,35.19411849975590,162
-10.960617065429700,-29.450298309326200,35.19234848022460,-10.945905685424800,-29.126314163208000,35.44687271118160,163
-11.042696952819800,-29.15138053894040,35.44508361816410,-11.027981758117700,-28.827407836914100,35.69962692260740,164
-11.124776840210000,-28.852455139160200,35.697818756103500,-11.110057830810500,-28.528499603271500,35.95237731933590,165
-11.206856727600100,-28.55353355407720,35.9505500793457,-11.192132949829100,-28.229591369628900,36.205135345459000,166
-11.288935661315900,-28.25461196899410,36.20328903198240,-11.274209022522000,-27.930688858032200,36.457889556884800,167
-11.371014595031700,-27.9556884765625,36.456024169921900,-11.356283187866200,-27.631784439086900,36.71064758300780,168
